INDEX VERSION 1.131+C:\Users\ramannpr\support_works\jaya-prakash\.metadata\.plugins\org.eclipse.jdt.core
548686663.index
713430001.index
2186791525.index
3053923085.index
1592492651.index
264309038.index
1939336741.index
4141300199.index
792379467.index
2935313974.index
575839070.index
3778274508.index
1431509678.index
2663611681.index
3974896339.index
1392168589.index
3354942764.index
1857627925.index
2931242201.index
1646723717.index
2541732576.index
3567444875.index
2275200283.index
3973023458.index
2788070539.index
624159616.index
1719220389.index
2056733692.index
937209643.index
4126524711.index
603561978.index
1773804312.index
2676596651.index
1623455725.index
3258350789.index
1321436677.index
673205652.index
3851839698.index
3083703609.index
3212313954.index
3332862427.index
2352779537.index
3049472854.index
58787526.index
2511002937.index
689552030.index
3948665292.index
738843045.index
1407134076.index
1301585996.index
1957876765.index
778568628.index
4162945703.index
1614806129.index
3596546491.index
2138448766.index
2991459185.index
1949151785.index
3521849231.index
1351681529.index
1572155445.index
2826165369.index
220041829.index
4288915139.index
394999533.index
179824445.index
3468527636.index
3124212318.index
2575965364.index
2867978721.index
300557923.index
1892195776.index
427796558.index
4171242263.index
3613472930.index
2407129934.index
2495801525.index
2112741047.index
2698540235.index
1563872504.index
3543086446.index
2394930085.index
1806346343.index
1817573572.index
2747938833.index
3383181469.index
2205690537.index
2915718050.index
3174157995.index
3324931613.index
4206105052.index
2395656979.index
2057671809.index
198475942.index
1869980616.index
2593685850.index
2114676569.index
2057580938.index
3039184894.index
1795110872.index
2110314881.index
2572695648.index
1186055455.index
2231687035.index
3680620153.index
2965254383.index
2487302122.index
236485544.index
1487470015.index
1028419663.index
1408393328.index
3292298372.index
2532292776.index
2157173553.index
2395150948.index
4143641404.index
2409348642.index
3192053530.index
968075341.index
327589097.index
1532407183.index
3511859483.index
2538436672.index
881775183.index
330910920.index
2683311487.index
207341042.index
3151802299.index
995370013.index
2007702705.index
82386521.index
3326040869.index
2204403105.index
3554285876.index
1121095693.index
752481733.index
3907688511.index
1740898894.index
976685847.index
2832459767.index
2020916085.index
855398019.index
577684887.index
2590381242.index
1043540684.index
906132034.index
3141256530.index
2708708804.index
2056055548.index
2720751595.index
3619206917.index
1798629947.index
1718566135.index
2708880446.index
3846495809.index
2621308837.index
1619841999.index
474260614.index
1104257294.index
396217952.index
158434833.index
2950603888.index
1650732884.index
1892709720.index
750007763.index
810136069.index
1230808603.index
3863328446.index
1426823354.index
1430213936.index
2168580704.index
4244797308.index
4071853253.index
1769314933.index
32082386.index
1020732572.index
4244043495.index
267175110.index
41742084.index
3317771389.index
2443733392.index
671674800.index
1504993545.index
1292866905.index
2181263580.index
2273996199.index
870993433.index
4062399236.index
2116607540.index
2319931672.index
4234336884.index
1997816215.index
1884516462.index
147465694.index
4152495654.index
3979317889.index
3905302235.index
2877184362.index
1602718472.index
103511690.index
1202773950.index
3783654397.index
158254563.index
127180794.index
3985828604.index
2100239904.index
3037848578.index
438777377.index
3858593789.index
4034152161.index
2976283406.index
1104970680.index
2789422159.index
2313958777.index
3035225737.index
853294408.index
3483122478.index
2046618358.index
2889840365.index
540693725.index
3447355029.index
1286437187.index
2300385356.index
328350030.index
962547040.index
3549324868.index
4196978678.index
2497473087.index
2131214360.index
2424428555.index
3494790443.index
1212941687.index
3073278847.index
2915072775.index
3006102482.index
1220995794.index
1977748490.index
479192563.index
2942325988.index
333716109.index
3253142721.index
1056853.index
3464420458.index
4248066816.index
4164013582.index
72573287.index
3678923594.index
4035975746.index
2602692735.index
2146607064.index
55205916.index
211402758.index
3645188249.index
3172877466.index
1584634393.index
1341672685.index
2534235178.index
30041659.index
3657961646.index
774834121.index
1729276179.index
323151082.index
2749438548.index
565386299.index
4003787254.index
3894642630.index
1748755264.index
1792590478.index
1371484701.index
2954943416.index
1167250797.index
4099839787.index
3575582669.index
1456010245.index
1402687006.index
753901246.index
222391807.index
3515129874.index
2543527996.index
315723234.index
3335871014.index
306160358.index
485642199.index
2284361353.index
5406906.index
3484441794.index
3962763584.index
1893894727.index
2325841008.index
2792506540.index
898990132.index
3796237070.index
2055553040.index
2269126317.index
3777284395.index
1445139945.index
3638825732.index
4021318966.index
1041855424.index
352355851.index
3122094469.index
4113151239.index
3451037898.index
3057420102.index
2330177982.index
2485129747.index
466177304.index
1455111959.index
2545755362.index
3696715736.index
2981085137.index
530726220.index
890392424.index
1728104543.index
764548736.index
2862401900.index
1563865704.index
1620146765.index
603887850.index
2028945854.index
3874427054.index
2637473363.index
1818911240.index
1259142839.index
1064677254.index
268799227.index
4070714971.index
612732444.index
3411082958.index
